ECGdata
381
378
379
377
380
375
379
372
378
372
374
372
369
374
366
371
362
369
363
367
363
364
363
360
363
357
360
354
359
354
354
353
351
353
347
352
344
345
335
336
328
322
326
331
338
337
350
343
348
344
345
342
340
342
330
293
155
87
469
644
433
317
316
303
303
296
293
292
286
288
278
281
271
270
260
254
244
232
224
208
209
198
204
206
227
258
290
328
351
375
381
390
388
387
390
384
386
379
384
378
379
377
374
378
374
380
373
380
376
378
376
375
377
373
376
372
374
372
369
373
367
371
365
369
365
364
365
361
364
357
363
356
361
356
356
357
353
357
351
356
349
352
346
347
347
343
347
341
347
339
337
333
327
320
317
335
332
341
347
349
350
347
350
345
349
341
344
312
217
76
181
640
541
345
319
318
310
305
305
297
299
291
293
286
281
275
266
262
250
244
226
220
207
202
201
201
216
236
275
305
339
356
372
379
380
384
377
383
375
378
374
374
374
370
375
369
375
371
376
373
374
375
371
375
370
375
369
374
373
369
373
365
373
367
369
366
364
366
361
364
357
362
355
356
354
351
352
346
351
342
346
340
340
338
335
337
333
332
331
328
331
325
328
316
318
308
299
301
311
319
318
333
326
331
329
327
328
322
327
316
291
168
53
213
598
492
316
306
300
298
294
289
294
284
288
279
282
274
270
264
254
249
234
227
210
206
201
199
206
216
250
278
319
342
367
378
384
388
383
388
380
384
376
379
376
373
375
370
375
370
375
371
374
373
370
375
369
374
367
372
368
368
369
363
368
361
365
361
361
359
356
360
354
358
352
356
352
352
352
348
352
346
350
344
347
346
343
344
340
345
339
344
339
339
332
330
325
314
332
333
340
347
355
353
352
355
350
354
347
350
325
245
81
149
560
627
396
326
324
318
309
310
301
304
295
298
290
288
283
274
270
256
250
232
227
212
209
204
206
216
235
270
297
334
353
374
381
386
387
383
386
377
381
373
377
371
372
370
369
371
368
372
368
374
369
372
369
371
370
366
368
362
366
360
363
359
358
361
355
360
352
357
351
353
352
350
352
347
350
345
349
341
345
340
341
341
337
341
336
340
336
339
333
338
333
327
325
316
313
315
330
326
339
342
341
345
341
344
338
343
335
328
268
123
75
404
648
469
327
309
311
302
303
297
292
294
285
288
279
277
271
263
257
242
235
219
215
203
201
200
206
227
252
295
322
357
372
386
390
393
395
389
393
385
387
382
382
380
377
380
374
380
376
379
377
377
377
373
377
370
375
368
372
367
367
366
362
364
359
365
358
358
357
353
356
350
357
350
353
350
347
348
343
348
342
347
343
344
342
341
344
338
343
337
341
338
339
339
333
331
325
324
309
324
329
334
342
346
348
343
351
343
347
343
339
320
240
94
111
518
634
399
314
312
307
298
298
291
292
287
284
283
273
273
261
261
247
240
226
215
208
197
199
194
209
227
262
298
328
357
369
384
382
388
382
384
381
377
379
372
377
370
376
372
375
374
373
376
373
379
372
379
374
375
375
370
375
368
373
366
369
365
364
363
359
364
357
361
355
356
354
351
356
348
354
348
351
345
346
345
342
346
340
344
338
342
338
337
338
334
339
331
335
324
325
319
309
307
315
324
320
337
333
336
334
334
335
330
334
324
301
190
60
202
610
574
347
314
304
305
297
294
295
287
292
284
286
277
275
269
260
255
240
233
217
212
205
207
211
223
254
282
322
358
374
389
389
397
389
391
388
384
384
377
382
374
379
374
375
375
374
377
372
378
372
377
372
373
373
370
374
367
371
365
369
366
363
366
361
365
359
361
361
357
358
353
358
351
355
349
350
349
345
347
341
347
340
345
339
341
339
336
340
334
339
333
337
332
330
326
321
319
306
321
323
329
336
341
341
338
342
334
340
333
335
313
242
85
103
514
634
403
312
313
304
297
300
291
294
288
288
281
278
274
265
263
248
245
229
222
208
204
200
200
209
222
259
290
331
352
375
385
392
395
391
393
386
390
383
385
380
381
380
376
381
375
382
375
381
375
379
377
377
377
373
377
371
376
369
374
368
369
368
363
368
361
366
360
360
360
356
357
353
358
350
355
349
352
348
347
347
344
348
343
348
340
344
339
340
338
336
337
332
338
330
336
328
325
322
314
307
310
326
321
333
336
340
337
338
338
336
338
331
331
289
174
62
258
621
483
328
310
310
300
301
297
294
294
287
290
281
280
271
266
259
247
240
222
218
202
202
197
201
216
240
281
312
347
365
383
386
391
391
388
390
382
386
378
381
378
377
377
373
378
372
378
373
376
374
374
375
371
375
368
374
369
372
365
368
368
366
367
362
366
360
365
359
360
358
354
356
353
358
350
355
351
351
351
348
351
344
350
342
348
344
344
344
342
345
339
344
335
335
328
323
311
318
329
325
338
337
341
335
335
334
330
334
325
319
259
98
62
421
636
397
319
303
302
292
291
290
284
287
279
283
273
273
266
259
252
240
233
217
212
202
200
202
208
232
259
300
327
361
376
390
394
395
396
390
394
386
390
384
385
381
379
381
375
380
376
382
376
379
378
377
380
372
377
370
375
369
375
368
370
369
365
368
362
366
360
364
358
361
359
356
361
355
359
352
357
350
352
350
347
349
343
348
341
345
341
342
342
338
342
335
342
336
337
329
324
321
311
310
315
327
323
337
336
336
336
333
336
329
335
327
313
193
54
206
594
572
343
309
305
300
299
291
294
286
288
281
280
276
269
266
254
251
235
230
211
204
197
193
197
201
231
261
308
336
364
381
389
395
393
398
388
392
387
387
384
380
384
376
383
376
380
376
377
378
376
380
374
381
374
375
376
372
375
368
374
368
370
366
364
367
361
367
359
364
359
360
361
356
356
356
351
355
349
353
346
349
346
345
345
341
346
338
345
339
340
341
337
341
336
340
336
339
337
334
337
326
327
319
314
307
321
327
324
339
336
341
339
337
337
332
336
326
303
195
65
211
597
567
341
311
303
305
295
296
290
289
287
280
279
270
272
260
259
246
239
226
213
206
193
197
189
203
218
253
290
325
356
369
387
386
393
388
390
386
383
384
378
382
376
381
374
378
376
371
378
371
376
371
374
373
373
374
369
373
367
373
365
368
366
364
365
360
364
358
364
356
361
356
356
356
353
357
349
355
347
352
347
350
348
344
346
341
345
339
344
338
340
338
334
339
333
337
330
336
332
335
331
332
332
327
330
322
321
311
304
320
321
327
332
340
334
337
338
333
338
331
335
317
264
106
77
448
644
441
318
312
303
301
298
293
293
288
292
280
283
276
272
266
254
249
232
227
209
206
199
200
205
220
257
288
329
354
375
385
389
395
389
392
387
384
384
377
381
375
380
372
376
374
372
374
372
376
371
378
372
375
374
372
374
369
373
367
371
369
366
368
363
367
360
365
359
363
358
356
358
353
359
350
356
350
351
351
347
350
343
348
343
348
341
343
341
338
344
339
341
340
338
340
336
340
333
340
333
329
328
318
310
311
330
325
334
339
340
341
340
343
336
340
333
335
308
210
67
174
588
590
364
313
312
305
300
302
293
297
289
291
283
282
275
267
264
250
245
227
220
204
199
196
194
207
232
272
310
342
370
380
396
393
400
393
395
393
388
389
381
385
378
383
378
379
378
374
378
372
379
372
377
374
374
373
369
374
367
371
366
368
364
363
365
360
363
357
362
357
359
356
353
356
349
354
348
352
347
349
347
342
346
340
343
339
338
340
335
339
333
337
333
334
334
331
334
329
334
327
326
321
318
307
306
322
319
328
332
338
335
335
336
332
335
328
329
300
213
61
171
582
583
353
306
309
300
298
296
291
292
283
287
279
279
272
265
260
248
242
222
214
203
195
197
195
212
233
273
306
345
369
380
393
391
396
390
392
387
385
385
379
384
377
380
376
379
377
374
378
374
380
373
377
374
376
373
371
376
369
373
367
371
367
366
368
363
366
360
364
358
361
357
355
358
354
357
350
352
351
348
350
343
350
344
348
343
346
344
342
343
339
341
341
338
342
337
340
330
331
317
309
327
329
333
336
347
339
345
340
341
340
335
337
322
279
115
62
379
647
493
330
314
303
304
293
296
290
289
287
281
283
272
273
262
256
248
235
227
210
209
198
204
205
223
250
284
319
343
370
378
391
390
393
391
387
388
381
385
376
380
373
377
374
373
375
372
378
372
378
372
376
373
373
373
370
374
367
372
364
370
366
366
365
362
365
359
363
356
361
355
354
358
351
357
349
354
350
349
349
346
350
344
348
342
345
342
342
343
336
335
328
327
312
324
331
328
342
341
346
341
344
341
340
342
335
322
247
90
106
514
636
403
319
310
310
301
303
295
295
291
287
288
278
279
268
267
254
238
232
211
207
195
195
194
204
233
263
307
334
366
378
389
394
392
394
386
394
385
388
382
380
379
376
379
372
376
372
374
375
373
377
371
377
370
375
370
373
370
366
371
363
369
361
365
360
361
361
356
360
354
359
352
355
353
350
354
347
350
346
346
346
343
346
339
345
338
342
337
339
339
335
338
333
339
331
335
331
327
324
320
315
301
319
321
326
332
336
339
334
340
332
337
332
333
317
248
98
93
489
631
408
312
310
306
299
302
293
298
289
291
284
277
278
266
266
253
247
231
217
210
197
200
194
207
224
261
299
332
363
375
391
391
395
390
390
389
383
387
379
384
376
379
376
377
377
373
377
371
377
372
375
374
372
376
368
374
368
372
366
367
366
364
366
358
364
358
362
358
353
358
352
356
349
354
350
348
350
344
350
343
348
344
344
344
340
344
336
343
337
340
337
338
337
334
338
331
337
332
337
332
332
333
329
335
329
335
328
326
322
317
306
303
327
322
329
336
337
339
336
340
333
338
331
334
315
274
133
71
385
640
461
315
312
304
302
297
293
294
287
290
281
284
276
271
265
254
250
232
227
209
204
197
194
200
211
244
275
317
344
372
383
389
395
389
394
385
391
384
383
381
378
381
375
378
371
377
374
371
375
370
375
370
375
370
376
369
373
369
369
370
366
370
363
369
361
366
359
361
359
355
360
355
360
354
356
353
354
352
349
351
347
351
344
350
343
347
346
342
345
340
344
339
344
338
341
338
336
337
332
339
331
337
331
336
330
328
326
317
307
305
326
323
326
336
333
337
333
334
336
331
335
325
315
242
85
98
497
642
414
320
306
308
295
299
293
292
290
284
288
277
281
268
266
255
247
237
222
216
201
204
196
205
219
249
283
317
351
366
386
388
397
392
393
392
388
387
383
387
378
383
376
381
377
377
379
377
382
376
382
377
382
379
378
379
374
378
370
376
370
372
369
367
369
363
368
361
365
360
360
359
354
360
353
358
351
353
351
350
349
344
349
341
347
339
342
339
338
339
334
338
330
336
331
329
333
326
332
326
330
329
327
328
326
329
316
323
311
304
309
321
325
324
339
331
338
333
334
334
330
333
325
308
221
79
143
553
609
366
311
301
302
294
296
291
289
289
282
284
274
275
265
263
254
242
233
216
210
196
197
197
203
232
260
304
334
366
380
389
396
393
397
389
392
386
387
385
381
382
375
382
376
379
374
377
376
374
379
373
379
372
376
372
371
372
368
373
365
371
364
369
365
363
364
359
366
358
363
357
359
358
355
359
351
356
349
355
352
348
351
345
350
345
348
344
343
343
338
344
337
342
336
339
337
334
338
333
338
329
337
331
334
334
331
335
328
334
325
326
320
316
307
309
326
322
333
337
341
337
339
340
337
340
333
335
308
233
86
134
545
616
382
307
311
302
295
296
289
294
285
286
279
275
274
263
261
247
242
224
218
202
194
192
188
203
222
260
294
332
359
375
389
389
398
390
393
388
387
385
380
384
376
383
377
381
377
377
378
375
381
374
379
374
377
374
370
375
368
374
365
369
365
362
365
358
363
357
360
359
357
357
352
358
351
355
349
352
350
349
350
345
348
342
347
342
342
343
338
343
337
341
336
340
336
336
338
332
337
332
337
330
334
329
324
324
310
307
319
327
323
336
338
336
339
334
340
333
335
334
317
271
109
73
414
648
464
324
310
303
302
294
298
289
291
286
285
283
275
275
264
263
248
244
228
218
206
198
201
197
214
230
271
303
339
364
382
394
394
401
394
398
390
393
387
385
386
381
384
376
383
375
381
376
379
379
375
381
375
380
375
376
376
372
375
368
373
366
372
365
367
365
363
364
358
364
356
361
356
358
354
352
354
348
352
344
349
342
347
344
342
343
338
342
336
341
336
340
337
336
337
333
337
331
336
330
335
330
331
326
320
322
307
310
319
323
328
335
338
337
336
337
334
338
330
326
273
136
71
386
648
457
323
307
306
299
293
296
296
299
291
290
277
276
269
264
262
247
241
222
213
196
194
198
195
215
237
278
316
348
370
382
393
392
397
390
393
392
391
388
377
387
379
384
379
379
380
373
380
372
380
377
378
378
370
379
371
370
367
376
370
370
370
364
368
366
364
360
363
361
357
359
359
362
352
360
351
354
355
351
351
347
352
348
354
353
360
364
654
573
463
455
526
388
310
334
331
331
331
331
331
331
331
331
331
331
331
331
333
346
352
361
366
373
388
398
391
345
215
165
462
653
650
465
437
446
446
451
450
452
454
448
448
445
444
438
430
416
402
384
368
353
338
324
317
318
324
339
361
395
421
445
470
443
436
434
431
424
420
411
403
