ECGdata
0
0
0
0
0
0
0
0
0
0
0
0
0
0
0
0
0
52
78
98
119
139
161
182
201
222
242
258
278
298
314
333
349
369
383
396
410
421
436
447
460
470
482
493
502
511
522
531
537
547
551
556
558
563
568
572
579
586
597
608
619
621
627
628
634
637
637
639
634
596
468
406
651
655
655
654
653
650
627
612
611
607
606
604
597
594
587
581
570
562
552
544
540
537
539
547
565
589
613
630
640
644
644
643
636
632
628
623
619
613
609
605
603
599
597
595
592
591
585
584
579
576
574
567
564
560
558
553
549
546
542
537
534
531
525
523
517
516
510
507
502
494
488
480
476
470
467
468
469
475
475
472
468
466
463
459
456
451
442
390
255
206
508
653
601
409
399
395
387
382
377
372
369
363
357
349
342
334
323
313
304
300
298
299
306
321
343
374
392
405
411
414
412
409
407
405
401
398
397
393
394
390
388
388
389
390
389
389
389
388
385
387
385
385
383
382
381
378
378
374
377
373
372
372
369
370
369
368
366
366
364
361
358
350
347
346
345
341
345
347
354
358
357
358
356
357
355
352
350
343
307
183
99
334
625
506
343
320
314
310
305
303
301
300
297
293
287
282
277
267
260
251
244
243
241
245
253
272
295
319
343
354
360
361
364
362
360
357
356
354
352
352
352
351
353
353
353
353
358
355
356
357
356
356
356
355
356
355
354
353
353
353
351
352
351
349
349
348
348
349
347
346
346
347
341
337
332
330
330
328
330
333
340
344
345
343
344
345
342
342
341
336
301
185
92
310
631
440
323
313
307
304
300
299
296
295
293
290
286
280
273
265
258
250
243
242
242
247
259
278
304
329
349
361
367
370
371
367
365
363
364
361
360
358
358
358
357
360
359
360
360
361
363
361
362
360
361
361
360
359
360
359
357
357
355
355
354
353
353
353
354
351
350
351
349
348
346
343
338
336
332
331
329
333
336
344
350
346
348
346
347
346
347
344
334
291
161
104
374
640
476
330
314
309
303
299
299
296
293
290
288
284
277
273
264
257
248
243
238
239
242
249
270
293
323
342
359
366
369
369
367
366
363
363
361
362
359
360
360
358
358
357
361
360
360
360
360
361
360
360
359
359
357
357
356
356
355
355
353
353
352
351
353
349
352
349
348
348
346
345
339
335
330
333
329
331
335
337
347
347
348
349
348
347
344
345
339
312
217
91
237
609
554
352
316
312
307
304
302
301
296
295
292
288
285
278
271
260
251
244
240
240
244
249
266
288
314
337
353
363
366
367
366
362
361
356
355
353
353
351
351
353
351
353
355
354
355
355
354
354
354
354
353
352
352
351
351
350
347
349
346
345
345
345
344
342
345
340
337
330
328
326
327
325
324
328
333
340
341
340
342
342
339
338
338
332
293
172
84
352
617
485
334
312
305
301
299
297
294
291
289
285
280
275
269
262
251
246
239
237
238
245
257
276
303
326
348
359
366
366
367
363
362
362
359
359
356
355
354
354
353
354
357
357
357
359
359
359
359
360
359
358
359
359
358
358
357
356
355
355
354
354
351
352
351
352
350
344
339
334
336
331
334
336
340
350
349
350
350
350
350
348
346
340
309
204
92
265
629
536
340
316
311
306
303
299
298
295
292
289
286
279
273
263
257
245
241
238
238
241
248
269
292
318
340
355
365
369
370
368
367
364
359
360
358
356
356
356
357
357
356
358
360
359
361
358
361
361
360
358
358
359
358
357
356
357
354
353
354
351
352
349
350
347
347
342
337
335
333
332
332
334
339
346
350
350
349
348
347
345
344
342
324
255
107
143
535
618
389
316
311
306
301
298
298
296
290
289
284
281
273
263
256
249
242
237
237
240
248
265
287
318
339
357
365
370
371
371
368
365
364
362
362
359
360
358
358
359
359
359
362
363
363
365
363
363
363
363
364
359
362
361
359
359
358
356
355
355
352
353
353
354
349
346
343
337
337
334
332
336
340
345
351
349
349
349
347
348
346
344
336
293
163
95
352
631
496
335
315
308
306
300
298
298
294
292
287
286
279
273
266
257
248
242
239
239
243
251
268
291
318
338
355
364
367
366
365
363
361
360
356
356
352
353
351
352
353
353
353
353
355
355
355
354
353
355
353
353
350
352
351
350
349
346
346
347
344
344
342
343
342
338
334
329
328
326
326
328
329
337
344
342
343
342
343
342
340
339
332
299
190
82
276
587
560
360
312
309
303
299
298
295
295
292
288
284
281
273
265
257
249
243
237
238
241
248
265
289
317
338
357
364
368
371
368
367
364
365
362
361
359
360
358
358
359
360
359
358
360
360
362
361
361
361
360
362
361
360
360
358
359
356
356
355
357
355
355
352
353
352
349
344
340
336
338
331
335
337
342
351
353
353
351
349
349
349
348
344
319
235
95
191
595
576
363
318
313
309
304
302
299
299
294
293
289
284
278
272
262
255
247
241
240
242
250
265
294
322
344
358
368
371
371
369
369
366
365
364
362
362
360
360
360
358
360
360
363
361
362
363
361
361
362
360
362
359
359
358
358
356
354
355
353
352
351
352
350
349
350
348
345
339
335
330
331
329
330
336
338
348
349
349
349
346
347
345
343
338
311
213
88
222
612
555
347
315
311
306
303
298
298
296
294
291
287
283
276
272
261
252
244
240
240
241
251
265
291
317
342
358
368
370
373
372
367
367
364
329
261
232
232
235
243
259
285
308
332
349
357
360
360
360
358
355
355
353
352
352
351
350
351
352
352
351
351
355
355
355
354
355
356
354
354
353
354
353
353
353
351
349
350
350
349
349
348
349
346
341
339
332
334
330
331
335
340
346
349
350
348
351
346
347
346
343
327
259
109
207
605
559
356
317
311
308
303
301
300
297
296
292
289
284
280
270
263
252
248
245
238
243
250
268
291
321
343
359
369
373
376
372
369
367
367
363
362
362
360
361
360
360
360
360
362
360
364
362
365
361
363
362
362
361
359
359
359
357
357
355
356
354
354
353
353
352
351
350
348
344
337
336
334
331
334
335
341
349
351
350
350
350
350
346
345
345
326
259
109
133
513
630
406
320
314
309
303
301
299
294
294
291
286
283
278
270
262
254
243
239
236
236
240
253
275
302
328
347
359
366
368
368
365
364
362
362
361
360
359
357
359
358
360
360
360
359
363
362
361
363
361
362
361
360
359
360
359
358
357
356
356
354
356
353
352
352
351
351
349
345
341
336
334
333
333
336
340
346
352
347
351
350
348
347
345
346
333
279
133
122
465
635
435
325
314
308
305
300
300
296
293
294
290
284
278
274
265
256
243
239
236
236
243
255
275
298
325
342
356
360
364
363
355
354
350
345
343
341
340
342
337
336
335
335
335
334
334
334
332
334
335
333
331
332
332
331
331
334
331
329
332
331
330
330
328
325
326
320
323
322
322
326
337
345
350
354
354
357
359
360
366
365
335
248
127
296
648
609
421
387
396
394
399
402
406
413
418
424
425
425
427
418
418
408
404
406
412
415
427
448
472
502
525
537
542
547
542
536
542
535
530
524
523
516
513
510
506
508
504
508
506
500
509
503
504
503
504
503
496
497
497
503
495
498
503
492
486
496
495
492
493
488
486
479
478
484
484
486
506
523
525
524
523
524
531
534
528
524
481
349
306
574
654
654
626
497
508
505
500
502
499
498
492
485
482
477
470
461
452
443
436
433
430
437
445
462
484
511
529
543
549
547
545
538
534
530
523
523
515
509
507
505
500
496
492
491
484
482
480
477
479
472
460
460
454
449
450
441
435
430
427
424
424
416
409
402
393
384
380
380
375
381
378
388
387
387
377
381
374
376
372
366
339
252
121
194
649
512
336
316
308
302
293
289
287
282
276
276
271
264
257
242
238
230
220
213
220
215
246
309
281
264
285
305
303
317
312
317
304
307
299
300
383
331
239
211
247
377
374
378
374
380
373
377
374
376
373
371
376
369
373
367
371
367
366
368
363
366
360
364
358
361
357
355
358
354
357
350
352
351
348
350
343
350
344
348
343
346
344
342
343
339
341
341
338
342
337
340
330
331
317
309
327
329
333
336
347
339
345
340
341
340
335
337
322
279
115
62
379
647
493
330
314
303
304
293
296
290
289
287
281
283
272
273
262
256
248
235
227
210
209
198
204
205
223
250
284
319
343
370
378
391
390
393
391
387
388
381
385
376
380
373
377
374
373
375
372
378
372
378
372
376
373
373
373
370
374
367
372
364
370
366
366
365
362
365
359
363
356
361
355
354
358
351
357
349
354
350
349
349
346
350
344
348
342
345
342
342
343
336
335
328
327
312
324
331
328
342
341
346
341
344
341
340
342
335
322
247
90
106
514
636
403
319
310
310
301
303
295
295
291
287
288
278
279
268
267
254
238
232
211
207
195
195
194
204
233
263
307
334
366
378
389
394
392
394
386
394
385
388
382
380
379
376
379
372
376
372
374
375
373
377
371
377
370
375
370
373
370
366
371
363
369
361
365
360
361
361
356
360
354
359
352
355
353
350
354
347
350
346
346
346
343
346
339
345
338
342
337
339
339
335
338
333
339
331
335
331
327
324
320
315
301
319
321
326
332
336
339
334
340
332
337
332
333
317
248
98
93
489
631
408
312
310
306
299
302
293
298
289
291
284
277
278
266
266
253
247
231
217
210
197
200
194
207
224
261
299
332
363
375
391
391
395
390
390
389
383
387
379
384
376
379
376
377
377
373
377
371
377
372
375
374
372
376
368
374
368
372
366
367
366
364
366
358
364
358
362
358
353
358
352
356
349
354
350
348
350
344
350
343
348
344
344
344
340
344
336
343
337
340
337
338
337
334
338
331
337
332
337
332
332
333
329
335
329
335
328
326
322
317
306
303
327
322
329
336
337
339
336
340
333
338
331
334
315
274
133
71
385
640
461
315
312
304
302
297
293
294
287
290
281
284
276
271
265
254
250
232
227
209
204
197
194
200
211
244
275
317
344
372
383
389
395
389
394
385
391
384
383
381
378
381
375
378
371
377
374
371
375
370
375
370
375
370
376
369
373
369
369
370
366
370
363
369
361
366
359
361
359
355
360
355
360
354
356
353
354
352
349
351
347
351
344
350
343
347
346
342
345
340
344
339
344
338
341
338
336
337
332
339
331
337
331
336
330
328
326
317
307
305
326
323
326
336
333
337
333
334
336
331
335
325
315
242
85
98
497
642
414
320
306
308
295
299
293
292
290
284
288
277
281
268
266
255
247
237
222
216
201
204
196
205
219
249
283
317
351
366
386
388
397
392
393
392
388
387
383
387
378
383
376
381
377
377
379
377
382
376
382
377
382
379
378
379
374
378
370
376
370
372
369
367
369
363
368
361
365
360
360
359
354
360
353
358
351
353
351
350
349
344
349
341
347
339
342
339
338
339
334
338
330
336
331
329
333
326
332
326
330
329
327
328
326
329
316
323
311
304
309
321
325
324
339
331
338
333
334
334
330
333
325
308
221
79
143
553
609
366
311
301
302
294
296
291
289
289
282
284
274
275
265
263
254
242
233
216
210
196
197
197
203
232
260
304
334
366
380
389
396
393
397
389
392
386
387
385
381
382
375
382
376
379
374
377
376
374
379
373
379
372
376
372
371
372
368
373
365
371
364
369
365
363
364
359
366
358
363
357
359
358
355
359
351
356
349
355
352
348
351
345
350
345
348
344
343
343
338
344
337
342
336
339
337
334
338
333
338
329
337
331
334
334
331
335
328
334
325
326
320
316
307
309
326
322
333
337
341
337
339
340
337
340
333
335
308
233
86
134
545
616
382
307
311
302
295
296
289
294
285
286
279
275
274
263
261
247
242
224
218
202
194
192
188
203
222
260
294
332
359
375
389
389
398
390
393
388
387
385
380
384
376
383
377
381
377
377
378
375
381
374
379
374
377
374
370
375
368
374
365
369
365
362
365
358
363
357
360
359
357
357
352
358
351
355
349
352
350
349
350
345
348
342
347
342
342
343
338
343
337
341
336
340
336
336
338
332
337
332
337
330
334
329
324
324
310
307
319
327
323
336
338
336
339
334
340
333
335
334
317
271
109
73
414
648
464
324
310
303
302
294
298
289
291
286
285
283
275
275
264
263
248
244
228
218
206
198
201
197
214
230
271
303
339
364
382
394
394
401
394
398
390
393
387
385
386
381
384
376
383
375
381
376
379
379
375
381
375
380
375
376
376
372
375
368
373
366
372
365
367
365
363
364
358
364
356
361
356
358
354
352
354
348
352
344
349
342
347
344
342
343
338
342
336
341
336
340
337
336
337
333
337
331
336
330
335
330
331
326
320
322
307
310
319
323
328
335
338
337
336
337
334
338
330
326
273
136
71
386
648
457
323
307
306
299
293
296
296
299
291
290
277
276
269
264
262
247
241
222
213
196
194
198
195
215
237
278
316
348
370
382
393
392
397
390
393
392
391
388
377
387
379
384
379
379
380
373
380
372
380
377
378
378
370
379
371
370
367
376
370
370
370
364
368
366
364
360
363
361
357
359
359
362
352
360
351
354
355
351
351
347
352
348
354
353
360
364
654
573
463
455
526
388
310
334
331
331
331
331
331
331
331
331
331
331
331
331
333
346
352
361
366
373
388
398
391
345
215
165
462
653
650
465
437
446
446
451
450
452
454
448
448
445
444
438
430
416
402
384
368
353
338
324
317
318
324
339
361
395
421
445
470
443
436
434
431
424
420
411
403
